'i5282003.ng1' 'May 28 2002 13:22' 'I'     500000.    1  'NEUT'   64  'RAW'
  Filename         Date            Scan       Mon    Prf  Base   #pts  Type
i5282                                             
 15  20  40  99   0  0  0     1.5402     0.00000 0.00000   0.00000    2
 Collimation      Mosaic    Wavelength   T-Start   Incr.   H-field #Det
  1       1.60000    0.01600    2.60800
  2       1.60000    0.01600    2.60800
  3       0.00000    0.00000    0.00000
  4       0.00000    0.00000    0.00000
  5       4.80000    0.04800    7.82400
  6       6.40000    0.06400   10.43200
 Mot:    Start       Step      End
     A1         A2         A5         A6       MIN       COUNTS 
    1.60000    1.60000    4.80000    6.40000    0.82      114938
    1.61600    1.61600    4.84800    6.46400    0.82      116756
    1.63200    1.63200    4.89600    6.52800    0.80      118622
    1.64800    1.64800    4.94400    6.59200    0.80      119478
    1.66400    1.66400    4.99200    6.65600    0.80      120311
    1.68000    1.68000    5.04000    6.72000    0.78      121498
    1.69600    1.69600    5.08800    6.78400    0.78      123245
    1.71200    1.71200    5.13600    6.84800    0.77      123737
    1.72800    1.72800    5.18400    6.91200    0.77      125889
    1.74400    1.74400    5.23200    6.97600    0.75      127619
    1.76000    1.76000    5.28000    7.04000    0.75      127762
    1.77600    1.77600    5.32800    7.10400    0.75      129592
    1.79200    1.79200    5.37600    7.16800    0.73      130822
    1.80800    1.80800    5.42400    7.23200    0.73      132061
    1.82400    1.82400    5.47200    7.29600    0.72      133521
    1.84000    1.84000    5.52000    7.36000    0.72      134197
    1.85600    1.85600    5.56800    7.42400    0.72      136302
    1.87200    1.87200    5.61600    7.48800    0.72      136757
    1.88800    1.88800    5.66400    7.55200    0.70      138675
    1.90400    1.90400    5.71200    7.61600    0.70      139715
    1.92000    1.92000    5.76000    7.68000    0.68      140758
    1.93600    1.93600    5.80800    7.74400    0.68      142028
    1.95200    1.95200    5.85600    7.80800    0.68      142626
    1.96800    1.96800    5.90400    7.87200    0.68      144601
    1.98400    1.98400    5.95200    7.93600    0.67      146890
    2.00000    2.00000    6.00000    8.00000    0.65      146744
    2.01600    2.01600    6.04800    8.06400    0.67      148683
    2.03200    2.03200    6.09600    8.12800    0.65      149397
    2.04800    2.04800    6.14400    8.19200    0.65      150391
    2.06400    2.06400    6.19200    8.25600    0.63      152109
    2.08000    2.08000    6.24000    8.32000    0.65      152527
    2.09600    2.09600    6.28800    8.38400    0.63      153654
    2.11200    2.11200    6.33600    8.44800    0.63      155241
    2.12800    2.12800    6.38400    8.51200    0.62      156294
    2.14400    2.14400    6.43200    8.57600    0.63      157531
    2.16000    2.16000    6.48000    8.64000    0.62      159011
    2.17600    2.17600    6.52800    8.70400    0.62      159071
    2.19200    2.19200    6.57600    8.76800    0.60      160558
    2.20800    2.20800    6.62400    8.83200    0.62      161837
    2.22400    2.22400    6.67200    8.89600    0.60      163193
    2.24000    2.24000    6.72000    8.96000    0.60      164613
    2.25600    2.25600    6.76800    9.02400    0.60      166559
    2.27200    2.27200    6.81600    9.08800    0.60      166324
    2.28800    2.28800    6.86400    9.15200    0.58      168592
    2.30400    2.30400    6.91200    9.21600    0.58      168713
    2.32000    2.32000    6.96000    9.28000    0.58      170689
    2.33600    2.33600    7.00800    9.34400    0.58      172495
    2.35200    2.35200    7.05600    9.40800    0.57      173030
    2.36800    2.36800    7.10400    9.47200    0.58      175020
    2.38400    2.38400    7.15200    9.53600    0.58      176098
    2.40000    2.40000    7.20000    9.60000    0.57      176102
    2.41600    2.41600    7.24800    9.66400    0.57      179062
    2.43200    2.43200    7.29600    9.72800    0.55      179995
    2.44800    2.44800    7.34400    9.79200    0.57      181417
    2.46400    2.46400    7.39200    9.85600    0.57      182972
    2.48000    2.48000    7.44000    9.92000    0.57      182553
    2.49600    2.49600    7.48800    9.98400    0.55      185112
    2.51200    2.51200    7.53600   10.04800    0.55      185256
    2.52800    2.52800    7.58400   10.11200    0.53      187126
    2.54400    2.54400    7.63200   10.17600    0.53      188759
    2.56000    2.56000    7.68000   10.24000    0.53      190092
    2.57600    2.57600    7.72800   10.30400    0.53      190471
    2.59200    2.59200    7.77600   10.36800    0.52      190828
    2.60800    2.60800    7.82400   10.43200    0.53      191983
